Distance(Å) Energy(Hartree)
3.50 -1053.9146148491905
3.61 -1053.9148491217275
3.71 -1053.9149923921632
3.82 -1053.9150757104817
3.93 -1053.9151199994558
4.04 -1053.91513945197
4.14 -1053.915143721028
4.25 -1053.9151393283646
4.36 -1053.915130589605
4.46 -1053.9151202505238
4.57 -1053.9151099440055
4.68 -1053.9151005439837
4.79 -1053.915092420458
4.89 -1053.9150856421845
5.00 -1053.9150800992793
